# Joint_A_Angle(deg), Cam_X(mm), Cam_Y(mm), Cam_Z(mm), Torso_X(mm), Torso_Y(mm), Torso_Z(mm), EE_X(mm), EE_Y(mm), EE_Z(mm)
-19.9433, 3.8012, -10.2858, 165.4226, 234.4226, 5.1988, 267.3593, -2.8526, -58.6545, -70.9634
-19.7771, 3.7667, -10.2269, 165.4494, 234.4494, 5.2333, 267.3003, -2.9638, -58.6551, -70.9487
-19.6167, 3.6057, -10.0356, 165.4016, 234.4016, 5.3943, 267.1090, -2.8764, -58.6793, -70.9716
-19.4500, 3.4678, -9.8546, 165.4074, 234.4074, 5.5322, 266.9280, -2.8301, -58.6595, -70.9825
-19.2814, 3.3566, -9.7152, 165.4200, 234.4200, 5.6434, 266.7887, -2.8349, -58.6475, -70.9919
-19.1129, 3.2121, -9.5288, 165.3575, 234.3575, 5.7879, 266.6023, -2.7641, -58.6934, -71.0014
-18.9336, 3.0497, -9.3097, 165.3253, 234.3253, 5.9503, 266.3832, -2.6764, -58.7041, -71.0106
-18.7521, 2.9091, -9.1172, 165.3354, 234.3354, 6.0909, 266.1907, -2.6347, -58.6842, -71.0169
-18.5829, 2.7738, -8.9114, 165.3663, 234.3663, 6.2262, 265.9849, -2.5772, -58.6389, -71.0143
-18.4120, 2.6452, -8.7817, 165.1674, 234.1674, 6.3548, 265.8551, -2.5287, -58.8361, -71.0303
-18.2182, 2.5354, -8.5879, 165.3271, 234.3271, 6.4646, 265.6614, -2.5518, -58.6796, -71.0176
-18.0371, 2.3470, -8.3543, 165.2006, 234.2006, 6.6530, 265.4278, -2.4176, -58.7816, -71.0358
-17.8620, 2.2540, -8.2162, 165.3153, 234.3153, 6.7460, 265.2896, -2.4632, -58.6796, -71.0359
-17.6768, 2.0854, -8.0218, 165.2167, 234.2167, 6.9146, 265.0952, -2.3821, -58.7686, -71.0582
-17.5021, 1.9384, -7.8130, 165.3046, 234.3046, 7.0616, 264.8865, -2.3340, -58.6731, -71.0674
-17.3217, 1.7451, -7.5897, 165.1515, 234.1515, 7.2549, 264.6632, -2.1989, -58.8075, -71.0934
-17.1402, 1.6582, -7.4362, 165.2906, 234.2906, 7.3418, 264.5096, -2.2451, -58.6828, -71.0816
-16.9625, 1.4736, -7.1852, 165.2469, 234.2469, 7.5264, 264.2587, -2.1143, -58.7066, -71.0932
-16.7711, 1.3372, -7.0050, 165.2122, 234.2122, 7.6628, 264.0785, -2.0827, -58.7459, -71.0985
-16.5995, 1.2005, -6.8098, 165.2791, 234.2791, 7.7995, 263.8833, -2.0409, -58.6781, -71.1049
-16.4140, 1.0463, -6.6250, 165.1537, 234.1537, 7.9537, 263.6985, -1.9704, -58.8036, -71.1179
-16.2573, 0.9181, -6.4447, 165.1674, 234.1674, 8.0819, 263.5181, -1.9181, -58.7888, -71.1225
-16.0857, 0.8026, -6.3026, 165.1641, 234.1641, 8.1974, 263.3760, -1.9155, -58.8046, -71.1331
-15.9010, 0.6696, -6.1112, 165.0376, 234.0376, 8.3304, 263.1847, -1.8505, -58.9334, -71.1244
-15.7223, 0.5296, -5.9035, 165.1751, 234.1751, 8.4704, 262.9769, -1.8172, -58.8000, -71.1314
-15.5279, 0.3700, -5.7120, 165.0835, 234.0835, 8.6300, 262.7854, -1.7559, -58.8983, -71.1469
-15.3380, 0.1768, -5.4544, 165.1083, 234.1083, 8.8232, 262.5278, -1.6414, -58.8672, -71.1659
-15.1581, 0.0402, -5.2718, 165.1045, 234.1045, 8.9598, 262.3453, -1.6024, -58.8805, -71.1733
-14.9535, -0.0940, -5.0848, 165.1131, 234.1131, 9.0940, 262.1582, -1.5883, -58.8890, -71.1748
-14.7905, -0.2703, -4.8426, 165.1076, 234.1076, 9.2703, 261.9160, -1.4608, -58.8870, -71.1877
-14.6292, -0.3880, -4.6978, 165.1145, 234.1145, 9.3880, 261.7713, -1.4457, -58.8951, -71.2006
-14.4681, -0.5298, -4.5131, 165.1383, 234.1383, 9.5298, 261.5866, -1.3881, -58.8785, -71.2151
-14.2860, -0.6436, -4.3189, 165.1128, 234.1128, 9.6436, 261.3924, -1.3486, -58.9165, -71.1955
-14.1394, -0.7982, -4.1132, 165.1113, 234.1113, 9.7982, 261.1866, -1.2466, -58.9175, -71.2101
-13.9735, -0.9067, -3.9725, 165.0997, 234.0997, 9.9067, 261.0459, -1.2407, -58.9488, -71.2153
-13.7982, -1.0636, -3.7493, 165.1648, 234.1648, 10.0636, 260.8227, -1.1638, -58.8915, -71.2249
-13.6345, -1.1998, -3.5815, 165.0751, 234.0751, 10.1998, 260.6549, -1.1047, -58.9945, -71.2352
-13.4703, -1.3022, -3.4423, 165.1256, 234.1256, 10.3022, 260.5157, -1.1119, -58.9667, -71.2404
-13.3110, -1.4495, -3.2627, 165.1548, 234.1548, 10.4495, 260.3362, -1.0534, -58.9505, -71.2630
-13.1548, -1.6061, -3.0509, 165.1919, 234.1919, 10.6061, 260.1244, -0.9614, -58.9204, -71.2780
-12.9751, -1.7141, -2.9206, 165.1482, 234.1482, 10.7141, 259.9941, -0.9728, -58.9933, -71.2846
-12.7778, -1.8309, -2.7169, 165.2191, 234.2191, 10.8309, 259.7904, -0.9549, -58.9465, -71.2680
-12.6077, -2.0134, -2.5039, 165.1626, 234.1626, 11.0134, 259.5773, -0.8472, -59.0150, -71.2968
-12.4433, -2.1117, -2.3354, 165.1977, 234.1977, 11.1117, 259.4089, -0.8284, -59.0012, -71.2828
-12.2735, -2.2544, -2.1358, 165.1868, 234.1868, 11.2544, 259.2093, -0.7591, -59.0294, -71.2875
-12.1074, -2.4140, -1.9384, 165.2048, 234.2048, 11.4140, 259.0118, -0.6829, -59.0291, -71.3102
-11.9441, -2.5427, -1.7329, 165.1988, 234.1988, 11.5427, 258.8063, -0.6101, -59.0514, -71.3008
-11.7751, -2.6616, -1.5818, 165.2593, 234.2593, 11.6616, 258.6553, -0.6028, -59.0195, -71.3148
-11.6027, -2.8094, -1.3957, 165.2229, 234.2229, 11.8094, 258.4692, -0.5414, -59.0793, -71.3285
-11.4359, -2.9312, -1.2092, 165.2716, 234.2716, 11.9312, 258.2826, -0.4986, -59.0542, -71.3264
-11.2779, -3.0678, -1.0153, 165.2221, 234.2221, 12.0678, 258.0888, -0.4203, -59.1230, -71.3271
-11.1193, -3.1807, -0.8448, 165.3288, 234.3288, 12.1807, 257.9182, -0.3940, -59.0419, -71.3305
-10.9593, -3.3240, -0.6912, 165.2632, 234.2633, 12.3240, 257.7647, -0.3462, -59.1347, -71.3559
-10.8037, -3.4973, -0.4859, 165.3056, 234.3056, 12.4973, 257.5594, -0.2482, -59.1127, -71.3893
-10.6436, -3.5795, -0.3391, 165.3686, 234.3686, 12.5795, 257.4126, -0.2535, -59.0807, -71.3751
-10.4860, -3.7388, -0.1583, 165.3600, 234.3600, 12.7388, 257.2318, -0.1789, -59.1148, -71.4049
-10.3318, -3.8131, 0.0139, 165.3645, 234.3645, 12.8131, 257.0596, -0.1533, -59.1364, -71.3672
-10.1566, -3.9853, 0.2132, 165.3751, 234.3751, 12.9853, 256.8603, -0.0768, -59.1562, -71.3985
-10.0031, -4.0590, 0.3533, 165.3896, 234.3896, 13.0590, 256.7202, -0.0797, -59.1734, -71.3773
-9.8376, -4.2055, 0.5684, 165.4448, 234.4448, 13.2055, 256.5050, 0.0030, -59.1453, -71.3828
-9.6790, -4.3480, 0.7616, 165.4331, 234.4331, 13.3480, 256.3118, 0.0787, -59.1850, -71.3916
-9.4992, -4.4543, 0.8701, 165.4268, 234.4268, 13.4543, 256.2033, 0.0414, -59.2373, -71.4104
-9.3327, -4.5856, 1.1111, 165.5389, 234.5389, 13.5856, 255.9623, 0.1313, -59.1523, -71.3941
-9.1560, -4.7463, 1.2699, 165.5175, 234.5175, 13.7463, 255.8035, 0.1698, -59.2146, -71.4333
-8.9583, -4.8797, 1.4866, 165.5337, 234.5337, 13.8797, 255.5868, 0.2181, -59.2399, -71.4207
-8.7814, -5.0056, 1.6343, 165.5495, 234.5495, 14.0056, 255.4392, 0.2251, -59.2676, -71.4386
-8.5931, -5.2191, 1.9156, 165.5966, 234.5966, 14.2191, 255.1578, 0.3767, -59.2555, -71.4656
-8.4076, -5.3337, 2.1457, 165.6762, 234.6762, 14.3337, 254.9277, 0.4346, -59.2149, -71.4363
-8.2314, -5.4709, 2.3174, 165.6513, 234.6513, 14.4709, 254.7560, 0.4716, -59.2830, -71.4486
-8.0525, -5.6777, 2.5412, 165.6325, 234.6325, 14.6777, 254.5323, 0.5863, -59.3433, -71.4947
-7.8823, -5.7657, 2.6986, 165.6915, 234.6915, 14.7657, 254.3749, 0.5861, -59.3279, -71.4790
-7.7016, -5.9396, 2.9374, 165.6766, 234.6766, 14.9396, 254.1361, 0.6943, -59.3845, -71.4894
-7.5210, -6.0524, 3.0987, 165.7919, 234.7919, 15.0524, 253.9747, 0.6955, -59.3184, -71.4966
-7.3514, -6.2160, 3.2851, 165.7461, 234.7461, 15.2160, 253.7883, 0.7672, -59.4088, -71.5232
-7.1760, -6.3820, 3.4703, 165.7157, 234.7157, 15.3820, 253.6031, 0.8315, -59.4870, -71.5530
-7.0095, -6.4846, 3.6232, 165.7784, 234.7784, 15.4846, 253.4502, 0.8392, -59.4711, -71.5529
-6.8216, -6.6057, 3.8245, 165.8265, 234.8265, 15.6057, 253.2489, 0.8768, -59.4739, -71.5410
-6.6606, -6.7515, 4.0953, 165.9022, 234.9022, 15.7515, 252.9781, 1.0128, -59.4361, -71.5203
-6.4817, -6.8971, 4.2565, 165.8663, 234.8663, 15.8971, 252.8169, 1.0427, -59.5259, -71.5439
-6.2747, -7.0552, 4.4559, 165.8582, 234.8582, 16.0552, 252.6176, 1.0807, -59.5958, -71.5585
-6.0979, -7.2039, 4.6685, 165.9088, 234.9088, 16.2039, 252.4050, 1.1537, -59.5967, -71.5660
-5.9254, -7.3287, 4.8333, 165.9411, 234.9411, 16.3287, 252.2401, 1.1790, -59.6175, -71.5760
-5.7685, -7.5308, 5.0531, 165.8781, 234.8781, 16.5308, 252.0204, 1.3104, -59.7287, -71.6185
-5.6063, -7.6236, 5.1436, 165.8693, 234.8693, 16.6236, 251.9299, 1.2673, -59.7921, -71.6360
-5.4297, -7.7736, 5.3676, 165.9422, 234.9422, 16.7736, 251.7059, 1.3505, -59.7735, -71.6408
-5.2482, -7.9151, 5.5273, 165.9449, 234.9449, 16.9151, 251.5461, 1.3712, -59.8313, -71.6644
-5.0733, -8.0440, 5.7310, 165.9420, 234.9420, 17.0440, 251.3425, 1.4301, -59.8897, -71.6552
-4.8992, -8.1356, 5.9853, 166.1917, 235.1917, 17.1356, 251.0881, 1.5092, -59.6916, -71.6095
-4.7171, -8.3376, 6.0643, 166.0253, 235.0253, 17.3376, 251.0091, 1.4936, -59.9290, -71.7115
-4.5494, -8.4612, 6.3411, 166.1613, 235.1613, 17.4612, 250.7323, 1.6181, -59.8446, -71.6733
-4.3646, -8.6148, 6.4916, 166.0379, 235.0379, 17.6148, 250.5818, 1.6348, -60.0346, -71.7009
-4.1814, -8.7915, 6.6645, 165.9878, 234.9878, 17.7915, 250.4089, 1.6825, -60.1523, -71.7435
-4.0096, -8.8634, 6.9036, 166.2800, 235.2800, 17.8634, 250.1699, 1.7436, -59.9152, -71.6927
-3.8454, -9.0484, 6.9746, 166.0040, 235.0040, 18.0484, 250.0989, 1.7283, -60.2583, -71.7762
-3.6802, -9.1388, 7.2507, 166.2945, 235.2945, 18.1388, 249.8227, 1.8391, -60.0219, -71.7233
-3.5235, -9.2997, 7.3470, 166.0413, 235.0413, 18.2997, 249.7265, 1.8394, -60.3379, -71.7760
-3.3658, -9.3737, 7.5837, 166.3240, 235.3240, 18.3737, 249.4897, 1.9171, -60.1088, -71.7291
-3.1900, -9.5236, 7.7001, 166.1513, 235.1513, 18.5236, 249.3733, 1.9081, -60.3509, -71.7670
-3.0045, -9.6448, 7.9352, 166.3400, 235.3400, 18.6448, 249.1382, 1.9798, -60.2308, -71.7507
-2.8206, -9.7744, 8.1177, 166.3561, 235.3561, 18.7744, 248.9557, 2.0103, -60.2855, -71.7534
-2.6271, -9.9793, 8.3041, 166.2753, 235.2753, 18.9793, 248.7693, 2.0702, -60.4472, -71.8094
-2.4572, -10.1122, 8.5345, 166.4204, 235.4204, 19.1122, 248.5390, 2.1606, -60.3691, -71.8035
-2.2777, -10.2348, 8.7092, 166.4156, 235.4156, 19.2348, 248.3642, 2.1847, -60.4452, -71.8026
-2.0990, -10.3674, 8.8764, 166.4540, 235.4540, 19.3674, 248.1970, 2.2091, -60.4799, -71.8180
-1.9279, -10.4990, 9.0652, 166.5370, 235.5370, 19.4990, 248.0082, 2.2610, -60.4677, -71.8263
-1.7690, -10.6264, 9.2274, 166.5675, 235.5675, 19.6264, 247.8461, 2.2991, -60.5041, -71.8411
-1.5759, -10.7448, 9.3795, 166.5633, 235.5633, 19.7448, 247.6939, 2.2866, -60.5876, -71.8466
-1.3753, -10.8888, 9.6505, 166.7531, 235.7531, 19.8888, 247.4229, 2.3892, -60.4824, -71.8309
-1.1971, -11.0261, 9.7810, 166.7244, 235.7244, 20.0261, 247.2924, 2.3822, -60.5885, -71.8629
-0.9958, -11.1856, 10.0786, 166.8688, 235.8688, 20.1856, 246.9948, 2.5139, -60.5326, -71.8430
-0.8132, -11.3228, 10.2924, 166.9403, 235.9403, 20.3228, 246.7810, 2.5788, -60.5420, -71.8414
-0.6242, -11.4643, 10.4243, 166.8493, 235.8493, 20.4643, 246.6492, 2.5598, -60.7168, -71.8696
-0.4456, -11.5906, 10.6612, 167.0454, 236.0454, 20.5906, 246.4122, 2.6500, -60.6015, -71.8587
-0.2685, -11.7357, 10.7614, 166.9450, 235.9450, 20.7357, 246.3120, 2.6167, -60.7829, -71.9062
-0.0855, -11.8685, 10.9814, 167.0323, 236.0323, 20.8685, 246.0921, 2.6851, -60.7799, -71.8992
0.1031, -12.0050, 11.1867, 167.1550, 236.1550, 21.0050, 245.8867, 2.7394, -60.7451, -71.9055
0.2848, -12.1499, 11.3297, 167.0632, 236.0632, 21.1499, 245.7438, 2.7370, -60.9220, -71.9314
0.4487, -12.2880, 11.5648, 167.2082, 236.2082, 21.2880, 245.5087, 2.8456, -60.8582, -71.9286
0.6273, -12.3836, 11.7557, 167.2805, 236.2805, 21.3836, 245.3177, 2.8746, -60.8676, -71.9033
0.7921, -12.5290, 11.9496, 167.3104, 236.3104, 21.5290, 245.1238, 2.9423, -60.9207, -71.9169
0.9648, -12.6799, 12.1466, 167.3227, 236.3227, 21.6799, 244.9269, 3.0056, -60.9957, -71.9312
1.1342, -12.7900, 12.3158, 167.4277, 236.4277, 21.7900, 244.7576, 3.0356, -60.9728, -71.9333
1.3047, -12.9311, 12.4870, 167.3604, 236.3604, 21.9311, 244.5864, 3.0670, -61.1259, -71.9448
1.4684, -13.0163, 12.6245, 167.5462, 236.5462, 22.0163, 244.4490, 3.0705, -61.0181, -71.9499
1.6422, -13.1303, 12.7985, 167.6163, 236.6163, 22.1303, 244.2750, 3.0993, -61.0342, -71.9493
1.8154, -13.2800, 13.0129, 167.7329, 236.7329, 22.2800, 244.0605, 3.1860, -61.0107, -71.9635
1.9698, -13.4077, 13.1698, 167.6647, 236.6647, 22.4077, 243.9037, 3.2141, -61.1592, -71.9721
2.1489, -13.5283, 13.3730, 167.8457, 236.8458, 22.5283, 243.7005, 3.2769, -61.0718, -71.9726
2.3335, -13.6138, 13.5018, 167.8342, 236.8342, 22.6138, 243.5716, 3.2332, -61.1702, -71.9615
2.5126, -13.8058, 13.7132, 167.7995, 236.7995, 22.8058, 243.3602, 3.3163, -61.3081, -71.9985
2.6732, -13.8998, 13.9601, 168.0182, 237.0182, 22.8998, 243.1134, 3.4285, -61.1774, -71.9597
2.8771, -14.0473, 14.0432, 167.9832, 236.9832, 23.0473, 243.0302, 3.3520, -61.3148, -72.0205
3.0702, -14.1940, 14.3310, 168.1378, 237.1378, 23.1940, 242.7425, 3.4845, -61.2715, -71.9970
3.2493, -14.3355, 14.5190, 168.2113, 237.2113, 23.3355, 242.5545, 3.5343, -61.2982, -72.0128
3.4317, -14.4576, 14.6473, 168.2339, 237.2339, 23.4576, 242.4262, 3.5133, -61.3712, -72.0368
3.6218, -14.5828, 14.8594, 168.3644, 237.3644, 23.5828, 242.2140, 3.5712, -61.3465, -72.0309
3.7885, -14.7529, 15.1013, 168.4054, 237.4054, 23.7529, 241.9722, 3.6906, -61.4108, -72.0423
3.9683, -14.8397, 15.2317, 168.4650, 237.4650, 23.8397, 241.8417, 3.6614, -61.4432, -72.0387
4.1590, -14.9806, 15.4319, 168.5061, 237.5061, 23.9806, 241.6416, 3.7046, -61.5116, -72.0436
4.3159, -15.1463, 15.7166, 168.6817, 237.6817, 24.1463, 241.3568, 3.8873, -61.4448, -72.0438
4.4982, -15.2104, 15.7777, 168.7686, 237.7686, 24.2104, 241.2958, 3.7886, -61.4449, -72.0582
4.6815, -15.3652, 16.0607, 168.8318, 237.8318, 24.3652, 241.0128, 3.9211, -61.4997, -72.0362
4.8595, -15.4799, 16.1785, 168.8656, 237.8656, 24.4799, 240.8949, 3.8931, -61.5636, -72.0606
5.0181, -15.6226, 16.3778, 168.9119, 237.9119, 24.6226, 240.6956, 3.9712, -61.6189, -72.0711
5.2029, -15.7451, 16.5744, 169.0238, 238.0238, 24.7451, 240.4991, 4.0191, -61.6177, -72.0696
5.4075, -15.8587, 16.6948, 169.0345, 238.0345, 24.8587, 240.3786, 3.9608, -61.7165, -72.0867
5.5956, -16.0220, 16.9732, 169.1945, 238.1945, 25.0220, 240.1002, 4.1031, -61.6848, -72.0835
5.7781, -16.1697, 17.1457, 169.2107, 238.2107, 25.1697, 239.9277, 4.1293, -61.7816, -72.1064
5.9526, -16.2766, 17.3492, 169.3970, 238.3970, 25.2766, 239.7243, 4.1993, -61.7049, -72.0966
6.1488, -16.4220, 17.5068, 169.3225, 238.3225, 25.4220, 239.5666, 4.1824, -61.8958, -72.1145
6.3191, -16.5392, 17.7821, 169.6132, 238.6132, 25.5392, 239.2914, 4.3415, -61.7259, -72.0884
6.5263, -16.6354, 17.8987, 169.6513, 238.6513, 25.6354, 239.1748, 4.2723, -61.7999, -72.0950
6.7131, -16.8061, 18.1052, 169.6528, 238.6528, 25.8061, 238.9683, 4.3318, -61.9244, -72.1185
6.9240, -16.9582, 18.3484, 169.8197, 238.8197, 25.9582, 238.7251, 4.4163, -61.8986, -72.1219
7.1020, -17.0945, 18.5511, 169.9429, 238.9429, 26.0945, 238.5223, 4.4873, -61.8963, -72.1311
7.2850, -17.2281, 18.7418, 170.0002, 239.0002, 26.2281, 238.3317, 4.5286, -61.9596, -72.1368
7.4597, -17.3605, 18.9390, 170.0163, 239.0163, 26.3605, 238.1344, 4.5759, -62.0612, -72.1347
7.6412, -17.4621, 19.0898, 170.1301, 239.1301, 26.4621, 237.9837, 4.5795, -62.0600, -72.1391
7.8086, -17.6148, 19.2756, 170.1603, 239.1603, 26.6148, 237.7979, 4.6369, -62.1490, -72.1624
7.9818, -17.7400, 19.5145, 170.3277, 239.3277, 26.7400, 237.5589, 4.7479, -62.1087, -72.1489
8.1409, -17.8349, 19.6561, 170.4051, 239.4051, 26.8349, 237.4173, 4.7577, -62.1337, -72.1507
8.3024, -17.9584, 19.8383, 170.4596, 239.4596, 26.9584, 237.2351, 4.8091, -62.1931, -72.1538
8.4595, -18.0584, 19.9508, 170.5348, 239.5348, 27.0584, 237.1226, 4.7986, -62.2179, -72.1746
8.6186, -18.1674, 20.1471, 170.6660, 239.6660, 27.1674, 236.9264, 4.8741, -62.2022, -72.1666
8.7761, -18.2715, 20.2736, 170.7678, 239.7678, 27.2715, 236.7999, 4.8830, -62.2050, -72.1866
8.9402, -18.4056, 20.4718, 170.8232, 239.8232, 27.4056, 236.6017, 4.9502, -62.2718, -72.1905
9.1343, -18.4960, 20.6090, 170.9054, 239.9054, 27.4960, 236.4645, 4.9180, -62.3086, -72.1877
9.2892, -18.6351, 20.8115, 170.9133, 239.9133, 27.6351, 236.2620, 4.9904, -62.4209, -72.1896
9.4478, -18.7465, 20.9823, 171.0284, 240.0284, 27.7465, 236.0912, 5.0423, -62.4216, -72.1949
9.6058, -18.8758, 21.1775, 171.1859, 240.1859, 27.8758, 235.8959, 5.1340, -62.3889, -72.2077
9.7616, -18.9601, 21.2959, 171.1917, 240.1917, 27.9601, 235.7775, 5.1069, -62.4825, -72.2047
9.9237, -19.0838, 21.5132, 171.4036, 240.4036, 28.0838, 235.5602, 5.2232, -62.4027, -72.2071
10.0826, -19.1771, 21.5904, 171.3279, 240.3279, 28.1771, 235.4830, 5.1427, -62.5729, -72.2236
10.2549, -19.3054, 21.8538, 171.5698, 240.5698, 28.3054, 235.2197, 5.2970, -62.4783, -72.2090
10.4221, -19.4013, 21.9705, 171.6456, 240.6456, 28.4013, 235.1030, 5.2778, -62.5133, -72.2231
10.5743, -19.5484, 22.1715, 171.7337, 240.7337, 28.5484, 234.9019, 5.3734, -62.5551, -72.2415
10.7383, -19.6214, 22.2909, 171.8518, 240.8518, 28.6214, 234.7825, 5.3597, -62.5446, -72.2397
10.8980, -19.7600, 22.4858, 171.8844, 240.8844, 28.7600, 234.5876, 5.4243, -62.6418, -72.2471
11.0542, -19.8535, 22.6256, 172.0214, 241.0214, 28.8535, 234.4478, 5.4508, -62.6190, -72.2553
11.2104, -19.9571, 22.8075, 172.1000, 241.1000, 28.9571, 234.2659, 5.5031, -62.6620, -72.2447
11.3847, -20.0456, 22.9254, 172.0240, 241.0240, 29.0456, 234.1481, 5.4348, -62.8477, -72.2346
11.5642, -20.1598, 23.1267, 172.3765, 241.3765, 29.1598, 233.9468, 5.5538, -62.6448, -72.2509
11.7516, -20.2910, 23.2830, 172.3411, 241.3411, 29.2910, 233.7904, 5.5335, -62.8144, -72.2610
11.9182, -20.4142, 23.4899, 172.5079, 241.5080, 29.4142, 233.5835, 5.6280, -62.7892, -72.2632
12.0887, -20.5218, 23.6205, 172.4745, 241.4745, 29.5218, 233.4530, 5.5929, -62.9411, -72.2679
12.2632, -20.6613, 23.8540, 172.6679, 241.6679, 29.6613, 233.2195, 5.7161, -62.9042, -72.2727
12.4455, -20.7499, 23.9987, 172.8018, 241.8018, 29.7499, 233.0748, 5.7163, -62.9008, -72.2714
12.6079, -20.8959, 24.1754, 172.8769, 241.8769, 29.8959, 232.8981, 5.7759, -62.9649, -72.2986
12.7705, -21.0207, 24.3654, 173.0095, 242.0095, 30.0207, 232.7081, 5.8525, -62.9727, -72.3073
12.9199, -21.0922, 24.5012, 173.0573, 242.0573, 30.0922, 232.5722, 5.8497, -63.0336, -72.2897
13.0735, -21.2274, 24.6714, 173.1352, 242.1352, 30.2274, 232.4020, 5.9089, -63.0898, -72.3121
13.2517, -21.2914, 24.8333, 173.2903, 242.2903, 30.2914, 232.2401, 5.9236, -63.0653, -72.2840
13.4125, -21.4231, 25.0049, 173.3434, 242.3434, 30.4231, 232.0685, 5.9671, -63.1492, -72.2991
13.5850, -21.5295, 25.1814, 173.4596, 242.4596, 30.5295, 231.8920, 6.0086, -63.1738, -72.2960
13.7377, -21.6609, 25.3176, 173.5057, 242.5057, 30.6609, 231.7559, 6.0288, -63.2551, -72.3290
13.9219, -21.7449, 25.4888, 173.7305, 242.7305, 30.7449, 231.5846, 6.0754, -63.1768, -72.3205
14.1062, -21.8493, 25.6102, 173.7167, 242.7167, 30.8493, 231.4632, 6.0179, -63.3200, -72.3276
14.2638, -21.9924, 25.8501, 173.8557, 242.8557, 30.9924, 231.2233, 6.1527, -63.3419, -72.3280
14.4334, -22.1000, 25.9749, 174.0049, 243.0049, 31.1000, 231.0985, 6.1650, -63.3275, -72.3563
14.5914, -22.2127, 26.2073, 174.1783, 243.1783, 31.2127, 230.8662, 6.2900, -63.3100, -72.3384
14.7579, -22.3033, 26.3352, 174.1580, 243.1580, 31.3033, 230.7382, 6.2482, -63.4519, -72.3314
14.9183, -22.4085, 26.5032, 174.4077, 243.4078, 31.4085, 230.5703, 6.3378, -63.3497, -72.3484
15.0869, -22.5459, 26.7143, 174.4312, 243.4312, 31.5459, 230.3592, 6.3975, -63.4826, -72.3441
15.2396, -22.5933, 26.8092, 174.5549, 243.5549, 31.5933, 230.2643, 6.3691, -63.4662, -72.3349
15.4044, -22.7422, 27.0082, 174.6451, 243.6451, 31.7422, 230.0653, 6.4490, -63.5365, -72.3546
15.5740, -22.8385, 27.1655, 174.7390, 243.7390, 31.8385, 229.9079, 6.4665, -63.5832, -72.3504
15.7313, -22.9629, 27.3492, 174.9040, 243.9040, 31.9629, 229.7243, 6.5552, -63.5722, -72.3664
15.8838, -23.0391, 27.4597, 174.9672, 243.9672, 32.0391, 229.6138, 6.5334, -63.6254, -72.3669
16.0482, -23.1052, 27.5759, 174.9909, 243.9909, 32.1052, 229.4976, 6.4855, -63.7199, -72.3501
16.2319, -23.2400, 27.7368, 175.1437, 244.1437, 32.2400, 229.3366, 6.5270, -63.7314, -72.3823
16.4195, -23.3574, 27.9347, 175.3309, 244.3310, 32.3574, 229.1388, 6.5989, -63.7175, -72.3847
16.5856, -23.4751, 28.0844, 175.3873, 244.3873, 32.4751, 228.9890, 6.6105, -63.8058, -72.3985
16.7449, -23.5740, 28.3006, 175.5482, 244.5482, 32.5740, 228.7729, 6.7119, -63.8054, -72.3757
